% Logarithmic Spiral Data
% r = 1 * exp(0.2 * phi)
% Columns: phi (rad) | x | y
%---------------------------------------------
   0.00000      1.00000      0.00000
   0.02518      1.00473      0.02531
   0.05037      1.00884      0.05085
   0.07555      1.01233      0.07663
   0.10073      1.01518      0.10261
   0.12592      1.01738      0.12879
   0.15110      1.01894      0.15514
   0.17628      1.01983      0.18166
   0.20146      1.02006      0.20833
   0.22665      1.01961      0.23513
   0.25183      1.01848      0.26205
   0.27701      1.01667      0.28906
   0.30220      1.01416      0.31616
   0.32738      1.01096      0.34332
   0.35256      1.00706      0.37053
   0.37775      1.00244      0.39777
   0.40293      0.99712      0.42502
   0.42811      0.99108      0.45227
   0.45330      0.98432      0.47949
   0.47848      0.97684      0.50667
   0.50366      0.96864      0.53379
   0.52885      0.95971      0.56083
   0.55403      0.95006      0.58777
   0.57921      0.93968      0.61459
   0.60439      0.92857      0.64128
   0.62958      0.91674      0.66781
   0.65476      0.90417      0.69417
   0.67994      0.89088      0.72034
   0.70513      0.87687      0.74629
   0.73031      0.86213      0.77201
   0.75549      0.84667      0.79748
   0.78068      0.83049      0.82268
   0.80586      0.81360      0.84759
   0.83104      0.79600      0.87219
   0.85623      0.77769      0.89646
   0.88141      0.75868      0.92039
   0.90659      0.73898      0.94394
   0.93177      0.71858      0.96711
   0.95696      0.69751      0.98987
   0.98214      0.67576      1.01220
   1.00732      0.65334      1.03409
   1.03251      0.63026      1.05552
   1.05769      0.60653      1.07646
   1.08287      0.58215      1.09691
   1.10806      0.55715      1.11683
   1.13324      0.53152      1.13621
   1.15842      0.50528      1.15504
   1.18361      0.47844      1.17329
   1.20879      0.45101      1.19095
   1.23397      0.42300      1.20800
   1.25916      0.39443      1.22442
   1.28434      0.36531      1.24019
   1.30952      0.33565      1.25530
   1.33470      0.30547      1.26974
   1.35989      0.27478      1.28347
   1.38507      0.24360      1.29650
   1.41025      0.21194      1.30880
   1.43544      0.17982      1.32035
   1.46062      0.14726      1.33115
   1.48580      0.11427      1.34117
   1.51099      0.08086      1.35041
   1.53617      0.04707      1.35884
   1.56135      0.01290      1.36646
   1.58654     -0.02162      1.37325
   1.61172     -0.05647      1.37920
   1.63690     -0.09164      1.38430
   1.66209     -0.12711      1.38853
   1.68727     -0.16285      1.39188
   1.71245     -0.19885      1.39434
   1.73763     -0.23508      1.39591
   1.76282     -0.27151      1.39656
   1.78800     -0.30814      1.39630
   1.81318     -0.34494      1.39510
   1.83837     -0.38188      1.39297
   1.86355     -0.41894      1.38990
   1.88873     -0.45609      1.38587
   1.91392     -0.49332      1.38089
   1.93910     -0.53060      1.37493
   1.96428     -0.56791      1.36801
   1.98947     -0.60522      1.36011
   2.01465     -0.64250      1.35123
   2.03983     -0.67974      1.34136
   2.06501     -0.71690      1.33050
   2.09020     -0.75396      1.31865
   2.11538     -0.79090      1.30581
   2.14056     -0.82769      1.29197
   2.16575     -0.86430      1.27714
   2.19093     -0.90071      1.26130
   2.21611     -0.93689      1.24448
   2.24130     -0.97282      1.22665
   2.26648     -1.00847      1.20784
   2.29166     -1.04380      1.18803
   2.31685     -1.07881      1.16723
   2.34203     -1.11345      1.14545
   2.36721     -1.14771      1.12269
   2.39240     -1.18155      1.09896
   2.41758     -1.21495      1.07425
   2.44276     -1.24788      1.04859
   2.46794     -1.28033      1.02197
   2.49313     -1.31225      0.99440
   2.51831     -1.34362      0.96589
   2.54349     -1.37442      0.93646
   2.56868     -1.40462      0.90611
   2.59386     -1.43420      0.87485
   2.61904     -1.46312      0.84269
   2.64423     -1.49137      0.80965
   2.66941     -1.51892      0.77573
   2.69459     -1.54573      0.74096
   2.71978     -1.57180      0.70535
   2.74496     -1.59708      0.66891
   2.77014     -1.62157      0.63165
   2.79532     -1.64522      0.59360
   2.82051     -1.66803      0.55478
   2.84569     -1.68996      0.51519
   2.87087     -1.71099      0.47485
   2.89606     -1.73110      0.43380
   2.92124     -1.75027      0.39204
   2.94642     -1.76847      0.34960
   2.97161     -1.78569      0.30650
   2.99679     -1.80189      0.26276
   3.02197     -1.81707      0.21840
   3.04716     -1.83119      0.17345
   3.07234     -1.84424      0.12792
   3.09752     -1.85620      0.08186
   3.12271     -1.86706      0.03527
   3.14789     -1.87678     -0.01182
   3.17307     -1.88536     -0.05937
   3.19825     -1.89278     -0.10736
   3.22344     -1.89901     -0.15577
   3.24862     -1.90405     -0.20457
   3.27380     -1.90788     -0.25372
   3.29899     -1.91049     -0.30321
   3.32417     -1.91185     -0.35299
   3.34935     -1.91196     -0.40305
   3.37454     -1.91081     -0.45334
   3.39972     -1.90838     -0.50384
   3.42490     -1.90465     -0.55452
   3.45009     -1.89963     -0.60535
   3.47527     -1.89330     -0.65629
   3.50045     -1.88564     -0.70731
   3.52564     -1.87666     -0.75837
   3.55082     -1.86635     -0.80946
   3.57600     -1.85469     -0.86052
   3.60118     -1.84169     -0.91153
   3.62637     -1.82733     -0.96245
   3.65155     -1.81162     -1.01325
   3.67673     -1.79455     -1.06389
   3.70192     -1.77611     -1.11433
   3.72710     -1.75631     -1.16456
   3.75228     -1.73515     -1.21451
   3.77747     -1.71262     -1.26417
   3.80265     -1.68873     -1.31349
   3.82783     -1.66348     -1.36244
   3.85302     -1.63687     -1.41099
   3.87820     -1.60890     -1.45909
   3.90338     -1.57959     -1.50671
   3.92856     -1.54893     -1.55381
   3.95375     -1.51693     -1.60036
   3.97893     -1.48361     -1.64632
   4.00411     -1.44896     -1.69166
   4.02930     -1.41300     -1.73633
   4.05448     -1.37575     -1.78030
   4.07966     -1.33720     -1.82354
   4.10485     -1.29737     -1.86601
   4.13003     -1.25629     -1.90767
   4.15521     -1.21395     -1.94849
   4.18040     -1.17038     -1.98843
   4.20558     -1.12560     -2.02745
   4.23076     -1.07961     -2.06553
   4.25595     -1.03245     -2.10263
   4.28113     -0.98412     -2.13870
   4.30631     -0.93465     -2.17372
   4.33149     -0.88406     -2.20766
   4.35668     -0.83237     -2.24048
   4.38186     -0.77961     -2.27214
   4.40704     -0.72579     -2.30262
   4.43223     -0.67095     -2.33188
   4.45741     -0.61511     -2.35989
   4.48259     -0.55830     -2.38662
   4.50778     -0.50054     -2.41204
   4.53296     -0.44186     -2.43612
   4.55814     -0.38230     -2.45883
   4.58333     -0.32188     -2.48014
   4.60851     -0.26064     -2.50001
   4.63369     -0.19860     -2.51844
   4.65887     -0.13581     -2.53538
   4.68406     -0.07229     -2.55081
   4.70924     -0.00807     -2.56470
   4.73442      0.05679     -2.57704
   4.75961      0.12228     -2.58780
   4.78479      0.18835     -2.59694
   4.80997      0.25496     -2.60446
   4.83516      0.32208     -2.61033
   4.86034      0.38967     -2.61453
   4.88552      0.45768     -2.61703
   4.91071      0.52608     -2.61783
   4.93589      0.59481     -2.61690
   4.96107      0.66386     -2.61423
   4.98626      0.73316     -2.60979
   5.01144      0.80267     -2.60359
   5.03662      0.87236     -2.59559
   5.06180      0.94217     -2.58579
   5.08699      1.01207     -2.57418
   5.11217      1.08201     -2.56074
   5.13735      1.15193     -2.54547
   5.16254      1.22180     -2.52836
   5.18772      1.29157     -2.50940
   5.21290      1.36118     -2.48859
   5.23809      1.43060     -2.46591
   5.26327      1.49978     -2.44137
   5.28845      1.56866     -2.41497
   5.31364      1.63720     -2.38669
   5.33882      1.70534     -2.35655
   5.36400      1.77305     -2.32454
   5.38918      1.84026     -2.29066
   5.41437      1.90694     -2.25493
   5.43955      1.97303     -2.21733
   5.46473      2.03848     -2.17789
   5.48992      2.10324     -2.13660
   5.51510      2.16726     -2.09348
   5.54028      2.23049     -2.04854
   5.56547      2.29289     -2.00178
   5.59065      2.35440     -1.95322
   5.61583      2.41496     -1.90288
   5.64102      2.47455     -1.85077
   5.66620      2.53309     -1.79690
   5.69138      2.59055     -1.74129
   5.71657      2.64687     -1.68397
   5.74175      2.70201     -1.62495
   5.76693      2.75592     -1.56425
   5.79211      2.80854     -1.50191
   5.81730      2.85984     -1.43793
   5.84248      2.90976     -1.37236
   5.86766      2.95825     -1.30521
   5.89285      3.00528     -1.23652
   5.91803      3.05079     -1.16632
   5.94321      3.09474     -1.09463
   5.96840      3.13708     -1.02148
   5.99358      3.17777     -0.94692
   6.01876      3.21677     -0.87098
   6.04395      3.25403     -0.79369
   6.06913      3.28951     -0.71510
   6.09431      3.32317     -0.63523
   6.11950      3.35497     -0.55413
   6.14468      3.38486     -0.47185
   6.16986      3.41281     -0.38842
   6.19504      3.43879     -0.30389
   6.22023      3.46275     -0.21830
   6.24541      3.48465     -0.13169
   6.27059      3.50447     -0.04413
   6.29578      3.52217      0.04435
   6.32096      3.53771      0.13370
   6.34614      3.55106      0.22386
   6.37133      3.56219      0.31479
   6.39651      3.57108      0.40643
   6.42169      3.57768      0.49873
   6.44688      3.58199      0.59163
   6.47206      3.58396      0.68508
   6.49724      3.58358      0.77902
   6.52242      3.58081      0.87340
   6.54761      3.57565      0.96815
   6.57279      3.56806      1.06322
   6.59797      3.55803      1.15855
   6.62316      3.54555      1.25408
   6.64834      3.53058      1.34974
   6.67352      3.51312      1.44548
   6.69871      3.49316      1.54122
   6.72389      3.47068      1.63692
   6.74907      3.44567      1.73250
   6.77426      3.41813      1.82789
   6.79944      3.38804      1.92304
   6.82462      3.35540      2.01789
   6.84981      3.32021      2.11235
   6.87499      3.28245      2.20637
   6.90017      3.24214      2.29988
   6.92535      3.19928      2.39281
   6.95054      3.15386      2.48509
   6.97572      3.10588      2.57666
   7.00090      3.05537      2.66746
   7.02609      3.00231      2.75740
   7.05127      2.94673      2.84642
   7.07645      2.88864      2.93447
   7.10164      2.82804      3.02145
   7.12682      2.76495      3.10732
   7.15200      2.69939      3.19199
   7.17719      2.63138      3.27540
   7.20237      2.56094      3.35749
   7.22755      2.48808      3.43819
   7.25273      2.41284      3.51742
   7.27792      2.33524      3.59512
   7.30310      2.25530      3.67123
   7.32828      2.17306      3.74567
   7.35347      2.08854      3.81839
   7.37865      2.00179      3.88931
   7.40383      1.91283      3.95837
   7.42902      1.82170      4.02550
   7.45420      1.72845      4.09065
   7.47938      1.63310      4.15374
   7.50457      1.53570      4.21472
   7.52975      1.43630      4.27352
   7.55493      1.33495      4.33009
   7.58012      1.23168      4.38436
   7.60530      1.12655      4.43627
   7.63048      1.01960      4.48577
   7.65566      0.91090      4.53279
   7.68085      0.80050      4.57729
   7.70603      0.68844      4.61920
   7.73121      0.57480      4.65847
   7.75640      0.45962      4.69506
   7.78158      0.34298      4.72890
   7.80676      0.22492      4.75995
   7.83195      0.10553      4.78816
   7.85713     -0.01515      4.81348
   7.88231     -0.13704      4.83587
   7.90750     -0.26007      4.85528
   7.93268     -0.38418      4.87167
   7.95786     -0.50929      4.88499
   7.98305     -0.63532      4.89521
   8.00823     -0.76222      4.90229
   8.03341     -0.88989      4.90619
   8.05859     -1.01826      4.90688
   8.08378     -1.14726      4.90432
   8.10896     -1.27680      4.89849
   8.13414     -1.40681      4.88935
   8.15933     -1.53720      4.87687
   8.18451     -1.66790      4.86104
   8.20969     -1.79881      4.84183
   8.23488     -1.92985      4.81921
   8.26006     -2.06095      4.79317
   8.28524     -2.19200      4.76368
   8.31043     -2.32293      4.73075
   8.33561     -2.45364      4.69434
   8.36079     -2.58405      4.65445
   8.38597     -2.71407      4.61107
   8.41116     -2.84360      4.56420
   8.43634     -2.97256      4.51383
   8.46152     -3.10086      4.45995
   8.48671     -3.22840      4.40257
   8.51189     -3.35509      4.34170
   8.53707     -3.48084      4.27733
   8.56226     -3.60555      4.20947
   8.58744     -3.72914      4.13814
   8.61262     -3.85151      4.06334
   8.63781     -3.97256      3.98509
   8.66299     -4.09221      3.90340
   8.68817     -4.21035      3.81830
   8.71336     -4.32690      3.72981
   8.73854     -4.44176      3.63795
   8.76372     -4.55484      3.54275
   8.78890     -4.66605      3.44424
   8.81409     -4.77529      3.34245
   8.83927     -4.88247      3.23741
   8.86445     -4.98750      3.12916
   8.88964     -5.09028      3.01774
   8.91482     -5.19073      2.90320
   8.94000     -5.28876      2.78556
   8.96519     -5.38428      2.66490
   8.99037     -5.47719      2.54124
   9.01555     -5.56741      2.41465
   9.04074     -5.65486      2.28517
   9.06592     -5.73944      2.15287
   9.09110     -5.82108      2.01780
   9.11628     -5.89968      1.88003
   9.14147     -5.97517      1.73962
   9.16665     -6.04746      1.59663
   9.19183     -6.11648      1.45114
   9.21702     -6.18214      1.30321
   9.24220     -6.24436      1.15292
   9.26738     -6.30308      1.00034
   9.29257     -6.35822      0.84556
   9.31775     -6.40969      0.68865
   9.34293     -6.45744      0.52969
   9.36812     -6.50140      0.36878
   9.39330     -6.54149      0.20599
   9.41848     -6.57764      0.04141
   9.44367     -6.60981     -0.12486
   9.46885     -6.63792     -0.29273
   9.49403     -6.66191     -0.46210
   9.51921     -6.68173     -0.63288
   9.54440     -6.69732     -0.80498
   9.56958     -6.70863     -0.97828
   9.59476     -6.71561     -1.15268
   9.61995     -6.71821     -1.32809
   9.64513     -6.71638     -1.50440
   9.67031     -6.71008     -1.68149
   9.69550     -6.69927     -1.85926
   9.72068     -6.68391     -2.03760
   9.74586     -6.66396     -2.21639
   9.77105     -6.63939     -2.39552
   9.79623     -6.61018     -2.57488
   9.82141     -6.57628     -2.75435
   9.84660     -6.53769     -2.93381
   9.87178     -6.49437     -3.11314
   9.89696     -6.44630     -3.29223
   9.92214     -6.39348     -3.47094
   9.94733     -6.33589     -3.64917
   9.97251     -6.27351     -3.82677
   9.99769     -6.20634     -4.00365
  10.02288     -6.13438     -4.17965
  10.04806     -6.05762     -4.35467
  10.07324     -5.97607     -4.52858
  10.09843     -5.88973     -4.70124
  10.12361     -5.79862     -4.87253
  10.14879     -5.70274     -5.04233
  10.17398     -5.60210     -5.21051
  10.19916     -5.49674     -5.37693
  10.22434     -5.38667     -5.54148
  10.24952     -5.27191     -5.70402
  10.27471     -5.15249     -5.86442
  10.29989     -5.02845     -6.02256
  10.32507     -4.89982     -6.17831
  10.35026     -4.76664     -6.33154
  10.37544     -4.62896     -6.48212
  10.40062     -4.48681     -6.62994
  10.42581     -4.34025     -6.77485
  10.45099     -4.18932     -6.91674
  10.47617     -4.03410     -7.05548
  10.50136     -3.87462     -7.19095
  10.52654     -3.71097     -7.32303
  10.55172     -3.54319     -7.45159
  10.57691     -3.37137     -7.57651
  10.60209     -3.19558     -7.69767
  10.62727     -3.01589     -7.81496
  10.65245     -2.83238     -7.92825
  10.67764     -2.64513     -8.03744
  10.70282     -2.45423     -8.14240
  10.72800     -2.25978     -8.24303
  10.75319     -2.06186     -8.33922
  10.77837     -1.86057     -8.43085
  10.80355     -1.65601     -8.51782
  10.82874     -1.44827     -8.60002
  10.85392     -1.23748     -8.67736
  10.87910     -1.02373     -8.74972
  10.90429     -0.80714     -8.81702
  10.92947     -0.58782     -8.87916
  10.95465     -0.36589     -8.93604
  10.97983     -0.14147     -8.98758
  11.00502      0.08531     -9.03367
  11.03020      0.31434     -9.07425
  11.05538      0.54547     -9.10922
  11.08057      0.77858     -9.13851
  11.10575      1.01354     -9.16204
  11.13093      1.25021     -9.17973
  11.15612      1.48844     -9.19151
  11.18130      1.72809     -9.19733
  11.20648      1.96903     -9.19710
  11.23167      2.21110     -9.19078
  11.25685      2.45416     -9.17830
  11.28203      2.69805     -9.15961
  11.30722      2.94262     -9.13466
  11.33240      3.18772     -9.10340
  11.35758      3.43318     -9.06579
  11.38276      3.67886     -9.02180
  11.40795      3.92458     -8.97137
  11.43313      4.17019     -8.91449
  11.45831      4.41552     -8.85112
  11.48350      4.66041     -8.78125
  11.50868      4.90469     -8.70485
  11.53386      5.14819     -8.62190
  11.55905      5.39074     -8.53240
  11.58423      5.63218     -8.43634
  11.60941      5.87233     -8.33371
  11.63460      6.11101     -8.22452
  11.65978      6.34806     -8.10877
  11.68496      6.58331     -7.98648
  11.71014      6.81657     -7.85765
  11.73533      7.04768     -7.72231
  11.76051      7.27645     -7.58048
  11.78569      7.50271     -7.43219
  11.81088      7.72630     -7.27748
  11.83606      7.94702     -7.11637
  11.86124      8.16472     -6.94892
  11.88643      8.37920     -6.77516
  11.91161      8.59030     -6.59515
  11.93679      8.79785     -6.40895
  11.96198      9.00166     -6.21662
  11.98716      9.20157     -6.01822
  12.01234      9.39741     -5.81382
  12.03753      9.58900     -5.60349
  12.06271      9.77617     -5.38733
  12.08789      9.95876     -5.16540
  12.11307     10.13660     -4.93781
  12.13826     10.30951     -4.70463
  12.16344     10.47735     -4.46598
  12.18862     10.63993     -4.22195
  12.21381     10.79712     -3.97265
  12.23899     10.94873     -3.71819
  12.26417     11.09462     -3.45870
  12.28936     11.23464     -3.19428
  12.31454     11.36863     -2.92507
  12.33972     11.49643     -2.65120
  12.36491     11.61792     -2.37279
  12.39009     11.73293     -2.08999
  12.41527     11.84132     -1.80295
  12.44046     11.94297     -1.51180
  12.46564     12.03773     -1.21671
  12.49082     12.12546     -0.91782
  12.51600     12.20605     -0.61529
  12.54119     12.27937     -0.30930
  12.56637     12.34528     -0.00000
